rho, ne (10^19 m^-3), Te (keV), Ti (keV)
         0    6.3951    2.9563    1.4088
    0.0101    6.3946    2.9547    1.4086
    0.0202    6.3931    2.9498    1.4078
    0.0303    6.3906    2.9416    1.4066
    0.0404    6.3871    2.9301    1.4049
    0.0505    6.3827    2.9155    1.4027
    0.0606    6.3773    2.8978    1.4000
    0.0707    6.3710    2.8771    1.3968
    0.0808    6.3637    2.8535    1.3932
    0.0909    6.3555    2.8270    1.3891
    0.1010    6.3465    2.7978    1.3845
    0.1111    6.3366    2.7660    1.3795
    0.1212    6.3258    2.7318    1.3740
    0.1313    6.3143    2.6953    1.3682
    0.1414    6.3020    2.6567    1.3618
    0.1515    6.2889    2.6160    1.3551
    0.1616    6.2752    2.5736    1.3479
    0.1717    6.2608    2.5294    1.3404
    0.1818    6.2457    2.4838    1.3324
    0.1919    6.2301    2.4368    1.3241
    0.2020    6.2140    2.3887    1.3155
    0.2121    6.1973    2.3395    1.3064
    0.2222    6.1802    2.2895    1.2970
    0.2323    6.1627    2.2389    1.2873
    0.2424    6.1448    2.1877    1.2773
    0.2525    6.1266    2.1361    1.2669
    0.2626    6.1081    2.0843    1.2563
    0.2727    6.0893    2.0324    1.2454
    0.2828    6.0704    1.9806    1.2341
    0.2929    6.0513    1.9289    1.2227
    0.3030    6.0321    1.8774    1.2109
    0.3131    6.0128    1.8264    1.1989
    0.3232    5.9935    1.7758    1.1867
    0.3333    5.9742    1.7258    1.1742
    0.3434    5.9550    1.6765    1.1615
    0.3535    5.9358    1.6279    1.1486
    0.3636    5.9168    1.5801    1.1355
    0.3737    5.8979    1.5331    1.1221
    0.3838    5.8792    1.4871    1.1086
    0.3939    5.8607    1.4420    1.0948
    0.4040    5.8425    1.3980    1.0809
    0.4141    5.8245    1.3549    1.0668
    0.4242    5.8068    1.3129    1.0525
    0.4343    5.7894    1.2720    1.0380
    0.4444    5.7723    1.2321    1.0233
    0.4545    5.7556    1.1933    1.0084
    0.4646    5.7391    1.1556    0.9934
    0.4747    5.7230    1.1190    0.9782
    0.4848    5.7073    1.0835    0.9628
    0.4949    5.6919    1.0491    0.9472
    0.5051    5.6767    1.0157    0.9314
    0.5152    5.6619    0.9833    0.9154
    0.5253    5.6474    0.9519    0.8993
    0.5354    5.6332    0.9216    0.8829
    0.5455    5.6192    0.8922    0.8664
    0.5556    5.6053    0.8637    0.8496
    0.5657    5.5917    0.8361    0.8326
    0.5758    5.5781    0.8094    0.8155
    0.5859    5.5646    0.7836    0.7981
    0.5960    5.5511    0.7585    0.7805
    0.6061    5.5375    0.7343    0.7628
    0.6162    5.5238    0.7107    0.7448
    0.6263    5.5098    0.6879    0.7265
    0.6364    5.4956    0.6657    0.7081
    0.6465    5.4809    0.6442    0.6895
    0.6566    5.4657    0.6232    0.6707
    0.6667    5.4499    0.6028    0.6516
    0.6768    5.4333    0.5830    0.6324
    0.6869    5.4158    0.5636    0.6130
    0.6970    5.3974    0.5446    0.5935
    0.7071    5.3777    0.5261    0.5738
    0.7172    5.3568    0.5080    0.5539
    0.7273    5.3344    0.4902    0.5339
    0.7374    5.3103    0.4727    0.5138
    0.7475    5.2844    0.4556    0.4937
    0.7576    5.2565    0.4387    0.4735
    0.7677    5.2264    0.4220    0.4533
    0.7778    5.1940    0.4056    0.4330
    0.7879    5.1589    0.3894    0.4129
    0.7980    5.1211    0.3733    0.3928
    0.8081    5.0802    0.3574    0.3728
    0.8182    5.0362    0.3417    0.3530
    0.8283    4.9888    0.3262    0.3334
    0.8384    4.9378    0.3108    0.3140
    0.8485    4.8830    0.2955    0.2949
    0.8586    4.8242    0.2804    0.2762
    0.8687    4.7612    0.2654    0.2579
    0.8788    4.6939    0.2506    0.2400
    0.8889    4.6222    0.2360    0.2226
    0.8990    4.5458    0.2216    0.2057
    0.9091    4.4647    0.2074    0.1894
    0.9192    4.3788    0.1935    0.1737
    0.9293    4.2880    0.1799    0.1586
    0.9394    4.1923    0.1666    0.1443
    0.9495    4.0917    0.1536    0.1306
    0.9596    3.9863    0.1410    0.1177
    0.9697    3.8761    0.1289    0.1056
    0.9798    3.7613    0.1172    0.0942
    0.9899    3.6420    0.1060    0.0836
    1.0000    3.5184    0.0954    0.0738
